Time [s]                 Flux [W m-2]
3.153600000000000000e+13 2.057336723083540431e+00
3.182809245496755859e+13 2.048615876195976959e+00
3.212289032603883594e+13 2.039814255158973744e+00
3.242041867129461719e+13 2.030931111826928426e+00
3.272070278090815234e+13 2.021965691124778530e+00
3.302376817929536719e+13 2.012917230983803929e+00
3.332964062728401172e+13 2.003784962276864867e+00
3.363834612430353906e+13 1.994568108753019375e+00
3.394991091059527344e+13 1.985265886971534277e+00
3.426436146944241406e+13 1.975877506235307113e+00
3.458172452942165625e+13 1.966402168523639693e+00
3.490202706667465625e+13 1.956839068424420125e+00
3.522529630720125781e+13 1.947187393065655581e+00
3.555155972917392188e+13 1.937446322046371128e+00
3.588084506527292188e+13 1.927615027366889500e+00
3.621318030504416406e+13 1.917692673358434741e+00
3.654859369727790625e+13 1.907678416612112349e+00
3.688711375241004688e+13 1.897571405907214626e+00
3.722876924494585938e+13 1.887370782138857228e+00
3.757358921590521875e+13 1.877075678244973123e+00
3.792160297529182812e+13 1.866685219132590223e+00
3.827284010458400781e+13 1.856198521603464657e+00
3.862733045924935156e+13 1.845614694279003709e+00
3.898510417128275000e+13 1.834932837524487104e+00
3.934619165176707031e+13 1.824152043372616383e+00
3.971062359345874219e+13 1.813271395446316658e+00
4.007843097339614844e+13 1.802289968880860682e+00
4.044964505553289844e+13 1.791206830245247517e+00
4.082429739339555469e+13 1.780021037462853117e+00
4.120241983276517188e+13 1.768731639731368821e+00
4.158404451438478906e+13 1.757337677441964452e+00
4.196920387669094531e+13 1.745838182097736446e+00
4.235793065857114062e+13 1.734232176231378153e+00
4.275025790214697656e+13 1.722518673322086080e+00
4.314621895558214844e+13 1.710696677711723623e+00
4.354584747591775781e+13 1.698765184520167226e+00
4.394917743193258594e+13 1.686723179559910024e+00
4.435624310703073438e+13 1.674569639249846364e+00
4.476707910215600000e+13 1.662303530528259632e+00
4.518172033873238281e+13 1.649923810765028254e+00
4.560020206163313281e+13 1.637429427672981053e+00
4.602255984217597656e+13 1.624819319218469893e+00
4.644882958114697656e+13 1.612092413531088786e+00
4.687904751185242969e+13 1.599247628812553668e+00
4.731325020319802344e+13 1.586376488937771612e+00
4.775147456279804688e+13 1.577680288827475463e+00
4.819375784011185938e+13 1.568903542850896393e+00
4.864013762961043750e+13 1.560045504976839359e+00
4.909065187397221094e+13 1.551105422264219991e+00
4.954533886730754688e+13 1.542082534798078663e+00
5.000423725841457812e+13 1.532976075624969292e+00
5.046738605406369531e+13 1.523785270687782578e+00
5.093482462231343750e+13 1.514509338759945090e+00
5.140659269585711719e+13 1.505147491379007274e+00
5.188273037539944531e+13 1.495698932779637502e+00
5.236327813306593750e+13 1.486162859825965743e+00
5.284827681584232031e+13 1.476538461943331049e+00
5.333776764904695312e+13 1.466824921049374009e+00
5.383179223983523438e+13 1.457021411484494600e+00
5.433039258073558594e+13 1.447127099941684092e+00
5.483361105321967188e+13 1.437141145395676389e+00
5.534149043130412500e+13 1.427062699031475645e+00
5.585407388518666406e+13 1.416890904172199095e+00
5.637140498491596875e+13 1.406624896206252862e+00
5.689352770409439844e+13 1.396263802513853625e+00
5.742048642361664844e+13 1.385806742392838409e+00
5.795232593544140625e+13 1.375252826983819343e+00
5.848909144639902344e+13 1.364601159194622992e+00
5.903082858203450781e+13 1.353850833624030248e+00
5.957758339048489844e+13 1.343000936484832319e+00
6.012940234639437500e+13 1.332050545526138663e+00
6.068633235486375781e+13 1.320998729955002782e+00
6.124842075543788281e+13 1.309844550357295523e+00
6.181571532612983594e+13 1.298587058617848733e+00
6.238826428748133594e+13 1.287225297839878158e+00
6.296611630666244531e+13 1.275758302263630295e+00
6.354932050160745312e+13 1.267737108706311400e+00
6.413792644519036719e+13 1.260436859759375583e+00
6.473198416943897656e+13 1.253068994512438916e+00
6.533154416978678125e+13 1.245632886690419827e+00
6.593665740936613281e+13 1.238127904217551478e+00
6.654737532333925781e+13 1.230553409163664735e+00
6.716374982327067969e+13 1.222908757689960213e+00
6.778583330154015625e+13 1.215193299994274945e+00
6.841367863579510156e+13 1.207406380255861666e+00
6.904733919344639844e+13 1.199547336579628531e+00
6.968686883620360156e+13 1.191615500939890770e+00
7.033232192465377344e+13 1.183610199123581452e+00
7.098375332288248438e+13 1.175530750672938884e+00
7.164121840313654688e+13 1.167376468827676428e+00
7.230477305053110938e+13 1.159146660466602530e+00
7.297447366780031250e+13 1.150840626048700077e+00
7.365037718009067188e+13 1.142457659553675509e+00
7.433254103980081250e+13 1.133997048421934384e+00
7.502102323146406250e+13 1.125458073494024047e+00
7.571588227667751562e+13 1.116840008949499641e+00
7.641717723907696875e+13 1.108142122245223016e+00
7.712496772935628125e+13 1.099363674053109641e+00
7.783931391033551562e+13 1.090503918197269329e+00
7.856027650207385938e+13 1.081562101590593183e+00
7.928791678703123438e+13 1.074345473669789941e+00
8.002229661527792188e+13 1.068201561670935051e+00
8.076347840975068750e+13 1.062000743585740592e+00
8.151152517156015625e+13 1.055742492339163618e+00
8.226650048534475000e+13 1.049426275974296052e+00
8.302846852467596875e+13 1.043051557607142632e+00
8.379749405751364062e+13 1.036617795380982976e+00
8.457364245171020312e+13 1.030124442420320641e+00
8.535697968056831250e+13 1.023570946784388758e+00
8.614757232844732812e+13 1.016956751420244220e+00
8.694548759642379688e+13 1.010281294115412898e+00
8.775079330800392188e+13 1.003544007450096753e+00
8.856355791488748438e+13 9.967443187489534173e-01
8.938385050278768750e+13 9.898816500324061352e-01
9.021174079730229688e+13 9.829554179675253911e-01
9.104729916984082812e+13 9.759650338184405749e-01
9.189059664360682812e+13 9.689099033962926821e-01
9.274170489963354688e+13 9.617894270087378183e-01
9.360069628287843750e+13 9.546029994089610948e-01
9.446764380837117188e+13 9.473500097442405510e-01
9.534262116742056250e+13 9.417858218103278833e-01
9.622570273387901562e+13 9.365087010699560954e-01
9.711696357046295312e+13 9.311827026294265952e-01
9.801647943513481250e+13 9.258073737741427944e-01
9.892432678754112500e+13 9.203822575963833685e-01
9.984058279551229688e+13 9.149068929564598829e-01
1.007653253416225625e+14 9.093808144435162610e-01
1.016986330298085156e+14 9.038035523359777557e-01
1.026405851920523594e+14 8.981746325616128956e-01
1.035912618951235625e+14 8.924935766572472673e-01
1.045507439473853438e+14 8.867599017280884954e-01
1.055191129056640156e+14 8.809731204066770793e-01
1.064964510821799844e+14 8.751327408114676354e-01
1.074828415515459844e+14 8.692382665050093493e-01
1.084783681578270625e+14 8.632891964517562799e-01
1.094831155216679688e+14 8.572850249754760954e-01
1.104971690474867500e+14 8.513618610099987771e-01
1.115206149307325312e+14 8.463998961882764904e-01
1.125535401652140469e+14 8.413919727007033167e-01
1.135960325504926719e+14 8.363376648693398030e-01
1.146481806993460781e+14 8.312365430735358940e-01
1.157100740453010469e+14 8.260881737134100344e-01
1.167818028502338906e+14 8.208921191729999789e-01
1.178634582120446094e+14 8.156479377830561095e-01
1.189551320723985625e+14 8.103551837835081262e-01
1.200569172245424375e+14 8.050134072855699152e-01
1.211689073211924062e+14 7.996221542334965848e-01
1.222911968824930000e+14 7.941809663659966656e-01
1.234238813040533906e+14 7.886893811772702767e-01
1.245670568650543125e+14 7.831469318777042332e-01
1.257208207364327188e+14 7.775531473541908989e-01
1.268852709891420312e+14 7.728269215005169057e-01
1.280605066024868438e+14 7.685866343895862984e-01
1.292466274725370000e+14 7.643070729295950994e-01
1.304437344206195312e+14 7.599878733540198494e-01
1.316519292018868594e+14 7.556286685270653392e-01
1.328713145139681094e+14 7.512290879124510212e-01
1.341019940056966562e+14 7.467887575419211998e-01
1.353440722859211719e+14 7.423072999834549046e-01
1.365976549323982344e+14 7.377843343091807782e-01
1.378628485007647812e+14 7.332194760630046382e-01
1.391397605335973750e+14 7.286123372279226240e-01
1.404284995695517344e+14 7.239625261930462408e-01
1.417291751525892500e+14 7.192696477203123218e-01
1.430418978412893750e+14 7.153741237298996136e-01
1.443667792182449688e+14 7.115798290740660281e-01
1.457039318995494062e+14 7.077503909364679657e-01
1.470534695443669062e+14 7.038854838114665391e-01
1.484155068645946562e+14 6.999847791785269724e-01
1.497901596346141250e+14 6.960479454742921623e-01
1.511775447011300938e+14 6.920746480644053289e-01
1.525777799931050000e+14 6.880645492150588849e-01
1.539909845317810000e+14 6.840173080642929504e-01
1.554172784407976562e+14 6.799325805930187538e-01
1.568567829564035625e+14 6.758100195957749134e-01
1.583096204377594688e+14 6.720184243365786569e-01
1.597759143773411250e+14 6.686788374196732665e-01
1.612557894114343438e+14 6.653083186109256530e-01
1.627493713307299688e+14 6.619065814132466530e-01
1.642567870910172812e+14 6.584733366759542017e-01
1.657781648239728750e+14 6.550082925702005454e-01
1.673136338480549062e+14 6.515111545641599777e-01
1.688633246794926875e+14 6.479816253979994167e-01
1.704273690433817500e+14 6.444194050586083966e-01
1.720058998848817188e+14 6.408241907540952464e-01
1.735990513805142500e+14 6.372484735827478319e-01
1.752069589495710312e+14 6.341483605277283830e-01
1.768297592656218750e+14 6.310195336335119309e-01
1.784675902681335000e+14 6.278617269470364581e-01
1.801205911741952500e+14 6.246746720519300577e-01
1.817889024903503438e+14 6.214580980456996251e-01
1.834726660245418750e+14 6.182117315166988369e-01
1.851720248981641562e+14 6.149352965208925159e-01
1.868871235582290312e+14 6.116285145583990612e-01
1.886181077896454375e+14 6.082911045498158309e-01
1.903651247276084375e+14 6.054358599911586758e-01
1.921283228701088438e+14 6.028235974258870922e-01
1.939078520905530625e+14 6.001871395858275893e-01
1.957038636505037188e+14 5.975262623697247255e-01
1.975165102125379688e+14 5.948407396006527570e-01
1.993459458532213750e+14 5.921303430067941242e-01
2.011923260762077188e+14 5.893948422020318656e-01
2.030558078254540625e+14 5.866340046663707231e-01
2.049365494985624062e+14 5.838475957261707316e-01
2.068347109602447812e+14 5.815612256300116689e-01
2.087504535559090938e+14 5.792672858410065073e-01
2.106839401253769062e+14 5.769520991435622692e-01
2.126353350167220000e+14 5.746154687447557752e-01
2.146048041002414688e+14 5.722571960289297710e-01
2.165925147825560312e+14 5.698770805408097662e-01
2.185986360208366875e+14 5.674749199684681056e-01
2.206233383371699688e+14 5.650505101261232843e-01
2.226667938330490625e+14 5.626986386881469571e-01
2.247291762040040000e+14 5.603314258487545052e-01
2.268106607543675625e+14 5.579422874319360792e-01
2.289114244121726875e+14 5.555310203588070816e-01
2.310316457441955000e+14 5.530974196695255252e-01
2.331715049711303438e+14 5.506412785058735215e-01
2.353311839829099688e+14 5.481623880936733473e-01
2.375108663541679062e+14 5.459688881177111597e-01
2.397107373598390625e+14 5.441284489678580583e-01
2.419309839909120625e+14 5.422709633190986311e-01
2.441717949703204375e+14 5.403962732835045912e-01
2.464333607689854688e+14 5.385042195107597740e-01
2.487158736220080312e+14 5.365946411746136402e-01
2.510195275450051250e+14 5.346673759592138753e-01
2.533445183506056562e+14 5.327699094389004575e-01
2.556910436650907188e+14 5.309126067054851239e-01
2.580593029451940000e+14 5.290381012794326265e-01
2.604494974950569688e+14 5.271462338261172498e-01
2.628618304833364375e+14 5.252368435351275622e-01
2.652965069604782188e+14 5.233097681065934648e-01
2.677537338761429688e+14 5.213648437373938904e-01
2.702337200967985938e+14 5.198782528711520801e-01
2.727366764234757500e+14 5.184446220602308975e-01
2.752628156096822500e+14 5.169977126869342854e-01
2.778123523794917500e+14 5.155374017626810357e-01
2.803855034457917812e+14 5.140635651597469380e-01
2.829824875287058750e+14 5.125760776007129982e-01
2.856035253741868125e+14 5.111550699428433209e-01
2.882488397727762500e+14 5.097592047081452860e-01
2.909186555785468125e+14 5.083504107030509811e-01
2.936131997282106875e+14 5.069285681788200382e-01
2.963327012604111250e+14 5.054935562775765279e-01
2.990773913351930000e+14 5.040452530220346228e-01
3.018475032536471875e+14 5.027971558832075027e-01
3.046432724777461875e+14 5.015866890724876015e-01
3.074649366503544375e+14 5.003650106869832470e-01
3.103127356154301875e+14 4.991320168829478376e-01
3.131869114384137500e+14 4.978876028548133714e-01
3.160877084267995000e+14 4.967539170900026058e-01
3.190153731509069375e+14 4.959781889533841359e-01
3.219701544648351875e+14 4.951952758746102634e-01
3.249523035276172500e+14 4.944051113053747337e-01
3.279620738245713750e+14 4.936076280809875705e-01
3.309997211888423750e+14 4.928027584146673079e-01
3.340655038231531250e+14 4.919904338917778230e-01
3.371596823217477500e+14 4.911705854640137647e-01
3.402825196925436875e+14 4.903431434435315261e-01
3.434342813794900625e+14 4.895080374970247061e-01
3.466152352851258750e+14 4.886651966397471680e-01
3.498256517933574375e+14 4.880655932832813071e-01
3.530658037924361875e+14 4.874847180629479637e-01
3.563359666981568125e+14 4.868984626653843351e-01
3.596364184772696875e+14 4.863067772583611892e-01
3.629674396711034375e+14 4.857096115480941112e-01
3.663293134194171250e+14 4.851069147749674793e-01
3.697223254844621250e+14 4.844986357092208595e-01
3.731467642752740625e+14 4.838847226465939899e-01
3.766029208721908125e+14 4.832651234039315180e-01
3.800910890515885000e+14 4.828923216116714490e-01
3.836115653108595625e+14 4.827970566924266183e-01
3.871646488936093125e+14 4.827009094113053900e-01
3.907506418150946875e+14 4.826038715957035596e-01
3.943698488878978125e+14 4.825059349973205847e-01
3.980225777478301875e+14 4.824070912914588671e-01
4.017091388800878125e+14 4.823073320763155425e-01
4.054298456456380000e+14 4.822066488722688282e-01
4.091850143078566250e+14 4.821050331211570450e-01
4.129749640594141250e+14 4.821516529748617885e-01
4.168000170494009375e+14 4.822379086728038611e-01
4.206604984107175625e+14 4.823249632874939685e-01
4.245567362877046250e+14 4.824128242186517257e-01
4.284890618640383750e+14 4.825014989345340899e-01
4.324578093908843125e+14 4.825909949725706860e-01
4.364633162153023750e+14 4.826813199400041277e-01
4.405059228089289375e+14 4.827724815145368886e-01
4.445859727969112500e+14 4.832293576848189498e-01
4.487038129871180625e+14 4.838097208532344817e-01
4.528597933996215625e+14 4.843954594561578064e-01
4.570542672964431875e+14 4.849866232818897949e-01
4.612875912115883750e+14 4.855832625798804925e-01
4.655601249813455625e+14 4.861854280649995363e-01
4.698722317748759375e+14 4.867931709218474290e-01
4.742242781250855000e+14 4.874492719368877514e-01
4.786166339597741875e+14 4.882268025737478423e-01
4.830496726330879375e+14 4.890115348478650259e-01
4.875237709572468125e+14 4.898035354621787518e-01
4.920393092345778125e+14 4.906028717374439352e-01
4.965966712898438125e+14 4.914096116179536566e-01
5.011962445028618750e+14 4.922238236773133768e-01
5.058384198414387500e+14 4.930754683310188402e-01
5.105235918945969375e+14 4.940157671450973176e-01
5.152521589061175625e+14 4.949647751863764378e-01
5.200245228083950625e+14 4.959225731213823263e-01
5.248410892565940000e+14 4.968892423637890632e-01
5.297022676631390625e+14 4.978648650813404797e-01
5.346084712325076875e+14 4.988495242028331278e-01
5.395601169963560625e+14 5.000921217198229796e-01
5.445576258489705625e+14 5.014557289021825959e-01
5.496014225830361875e+14 5.028319660746961572e-01
5.546919359257537500e+14 5.042209502187453563e-01
5.598295985752737500e+14 5.056227993992147285e-01
5.650148472374792500e+14 5.070376327745282907e-01
5.702481226631108750e+14 5.085887004904228181e-01
5.755298696852212500e+14 5.102799834693833025e-01
5.808605372569967500e+14 5.119869314343084010e-01
5.862405784899106250e+14 5.137096894772896771e-01
5.916704506922407500e+14 5.154484040342890427e-01
5.971506154079452500e+14 5.172032228975877999e-01
6.026815384558858750e+14 5.192661148970171281e-01
6.082636899694325000e+14 5.215193421155229769e-01
6.138975444364161250e+14 5.237934391548637603e-01
6.195835807394650000e+14 5.260885993153054940e-01
6.253222821967132500e+14 5.284050176874997007e-01
6.311141366028748750e+14 5.303024978058360484e-01
6.369596362707168750e+14 5.261304844297013394e-01
6.428592780728971250e+14 5.219198290688762398e-01
6.488135634842030000e+14 5.176701738139196651e-01
6.548229986241811250e+14 5.133811574403615019e-01
6.608880943001486250e+14 5.090524153780059402e-01
6.670093660506230000e+14 5.014035858694633196e-01
6.731873341891340000e+14 4.927312646097009585e-01
6.794225238484545000e+14 4.839786186541315538e-01
6.857154650252411250e+14 4.751449040200781404e-01
6.920666926250762500e+14 4.662293698339606829e-01
6.984767465079446250e+14 4.594603035393808876e-01
7.049461715341135000e+14 4.534570613925906213e-01
7.114755176104495000e+14 4.473982160704967903e-01
7.180653397371666250e+14 4.412832525658673122e-01
7.247161980549905000e+14 4.351116511013805588e-01
7.314286578927835000e+14 4.272870630621903865e-01
7.382032898155870000e+14 4.192284833551910839e-01
7.450406696731248750e+14 4.110952635438630542e-01
7.519413786487556250e+14 4.028867122973012749e-01
7.589060033088633750e+14 3.954010573356075975e-01
7.659351356527276250e+14 3.897898628733781345e-01
7.730293731628341250e+14 3.841266964563738728e-01
7.801893188556650000e+14 3.784110767104252315e-01
7.874155813329612500e+14 3.726425178027791274e-01
7.947087748334432500e+14 3.649426430898191076e-01
8.020695192850338750e+14 3.568757119981537662e-01
8.094984403575420000e+14 3.487340634500380454e-01
8.169961695158496250e+14 3.405170053981221856e-01
8.245633440735923750e+14 3.345403543251832534e-01
8.322006072473196250e+14 3.299936991200039804e-01
8.399086082111818750e+14 3.254049319259611495e-01
8.476880021520998750e+14 3.207736626937719437e-01
8.555394503254605000e+14 3.153152763237639378e-01
8.634636201113292500e+14 3.090700053000779435e-01
8.714611850711668750e+14 3.027668893834059571e-01
8.795328250050953750e+14 2.964053928032990837e-01
8.876792260096708750e+14 2.911594831141139927e-01
8.959010805362058750e+14 2.867468574857588437e-01
9.041990874496352500e+14 2.822933612760785693e-01
9.125739520879067500e+14 2.777986159339451144e-01
9.210263863219505000e+14 2.733353289458702040e-01
9.295571086161755000e+14 2.688531203616771892e-01
9.381668440895470000e+14 2.643293967055336258e-01
9.468563245772188750e+14 2.598556813851630176e-01
9.556262886927457500e+14 2.562860336528732796e-01
9.644774818908622500e+14 2.526833231615297493e-01
9.734106565308428750e+14 2.490472436775444109e-01
9.824265719404597500e+14 2.465816068525433502e-01
9.915259944805215000e+14 2.451555101535914660e-01
1.000709697610021125e+15 2.437162046746479405e-01
1.009978461951876500e+15 2.421852931786622476e-01
1.019333075359280250e+15 2.398332188093428297e-01
1.028774332982673250e+15 2.374593590779990604e-01
1.038303037337330000e+15 2.350635122044476277e-01
1.047919998371578625e+15 2.341947629161175159e-01
1.057626033535643625e+15 2.338336224599708579e-01
1.067421967851125125e+15 2.334691370519462461e-01
1.077308633981133500e+15 2.335255158503204420e-01
1.087286872301060625e+15 2.339867888891985492e-01
1.097357530970021250e+15 2.344523343270599192e-01
1.107521466002941500e+15 2.341630366358279092e-01
1.117779541343316625e+15 2.325669174690179752e-01
1.128132628936653750e+15 2.309560147416469811e-01
1.138581608804583750e+15 2.295265330077677080e-01
1.149127369119670250e+15 2.285158448801974385e-01
1.159770806280901000e+15 2.274957955661610631e-01
1.170512824989878000e+15 2.270805229888437637e-01
1.181354338327723500e+15 2.278506295080943711e-01
1.192296267832691000e+15 2.286278689010064757e-01
1.203339543578499500e+15 2.292385378396727125e-01
1.214485104253391500e+15 2.296406731794904954e-01
1.225733897239911500e+15 2.300465331736282759e-01
1.237086878695447000e+15 2.294276089836977395e-01
