Time [s]                 Flux [W m-2]
3.153600000000000000e+13 2.639001455239653751e+03
3.182809245496755859e+13 2.621884302940249199e+03
3.212289032603883594e+13 2.604944297061469570e+03
3.242041867129461719e+13 2.587847389612914867e+03
3.272070278090815234e+13 2.570619715299834297e+03
3.302376817929536719e+13 2.553929997515570449e+03
3.332964062728401172e+13 2.537219789302251229e+03
3.363834612430353906e+13 2.520700824875978014e+03
3.394991091059527344e+13 2.504393617320393332e+03
3.426436146944241406e+13 2.488272965895705511e+03
3.458172452942165625e+13 2.472003001918682912e+03
3.490202706667465625e+13 2.455582342427953336e+03
3.522529630720125781e+13 2.439706732710346387e+03
3.555155972917392188e+13 2.423843463057356075e+03
3.588084506527292188e+13 2.408354933674256699e+03
3.621318030504416406e+13 2.392722946573899662e+03
3.654859369727790625e+13 2.376946173023511165e+03
3.688711375241004688e+13 2.361491901964917361e+03
3.722876924494585938e+13 2.346097397679495771e+03
3.757358921590521875e+13 2.328186737365414956e+03
3.792160297529182812e+13 2.310518711634794727e+03
3.827284010458400781e+13 2.295823053257925494e+03
3.862733045924935156e+13 2.280991280886492859e+03
3.898510417128275000e+13 2.266022133806676266e+03
3.934619165176707031e+13 2.251309593972317998e+03
3.971062359345874219e+13 2.236711563633127298e+03
4.007843097339614844e+13 2.222497578979377522e+03
4.044964505553289844e+13 2.208253576077443995e+03
4.082429739339555469e+13 2.193877642500209731e+03
4.120241983276517188e+13 2.179542277573531010e+03
4.158404451438478906e+13 2.165520699169315776e+03
4.196920387669094531e+13 2.151568602747895511e+03
4.235793065857114062e+13 2.137687328575955689e+03
4.275025790214697656e+13 2.124105120346754575e+03
4.314621895558214844e+13 2.110565375142202356e+03
4.354584747591775781e+13 2.096900222231647149e+03
4.394917743193258594e+13 2.083196101464790445e+03
4.435624310703073438e+13 2.069863222804426186e+03
4.476707910215600000e+13 2.056614492380992488e+03
4.518172033873238281e+13 2.043607645790616061e+03
4.560020206163313281e+13 2.030480327302977003e+03
4.602255984217597656e+13 2.017231421084357862e+03
4.644882958114697656e+13 2.004305109170097694e+03
4.687904751185242969e+13 1.991379966286834588e+03
4.731325020319802344e+13 1.978697959913050909e+03
4.775147456279804688e+13 1.966012497889268616e+03
4.819375784011185938e+13 1.953646892706193057e+03
4.864013762961043750e+13 1.941166754926244266e+03
4.909065187397221094e+13 1.928571023726629846e+03
4.954533886730754688e+13 1.916189341352234806e+03
5.000423725841457812e+13 1.903897969246621415e+03
5.046738605406369531e+13 1.891921166115603683e+03
5.093482462231343750e+13 1.879925850490048788e+03
5.140659269585711719e+13 1.867819431960217344e+03
5.188273037539944531e+13 1.855182200012098974e+03
5.236327813306593750e+13 1.841022336483377558e+03
5.284827681584232031e+13 1.827914751023903364e+03
5.333776764904695312e+13 1.816246565475630177e+03
5.383179223983523438e+13 1.804782451521384928e+03
5.433039258073558594e+13 1.793393438839921146e+03
5.483361105321967188e+13 1.781898938947845181e+03
5.534149043130412500e+13 1.770314872615886316e+03
5.585407388518666406e+13 1.759098215198146136e+03
5.637140498491596875e+13 1.747888197810149222e+03
5.689352770409439844e+13 1.736938701573244998e+03
5.742048642361664844e+13 1.725887789010980214e+03
5.795232593544140625e+13 1.714734520785982795e+03
5.848909144639902344e+13 1.703777646617767914e+03
5.903082858203450781e+13 1.692895783333478676e+03
5.957758339048489844e+13 1.682162936223920951e+03
6.012940234639437500e+13 1.671394327578440425e+03
6.068633235486375781e+13 1.660974661825558996e+03
6.124842075543788281e+13 1.650458487138455666e+03
6.181571532612983594e+13 1.639844909632945246e+03
6.238826428748133594e+13 1.629318726526093542e+03
6.296611630666244531e+13 1.618957314917297936e+03
6.354932050160745312e+13 1.608681883950220481e+03
6.413792644519036719e+13 1.598427795369917931e+03
6.473198416943897656e+13 1.588495148572942753e+03
6.533154416978678125e+13 1.578572149055912632e+03
6.593665740936613281e+13 1.568557240822188987e+03
6.654737532333925781e+13 1.558436636918014074e+03
6.716374982327067969e+13 1.548210071056329525e+03
6.778583330154015625e+13 1.538157423870783987e+03
6.841367863579510156e+13 1.528095579825295545e+03
6.904733919344639844e+13 1.517940541058573217e+03
6.968686883620360156e+13 1.508225731129378573e+03
7.033232192465377344e+13 1.498748574912080358e+03
7.098375332288248438e+13 1.489194274505758813e+03
7.164121840313654688e+13 1.479692846151283675e+03
7.230477305053110938e+13 1.470103413752741289e+03
7.297447366780031250e+13 1.460516051942570130e+03
7.365037718009067188e+13 1.450906347749977385e+03
7.433254103980081250e+13 1.441211092616362293e+03
7.502102323146406250e+13 1.431446896607188364e+03
7.571588227667751562e+13 1.421592262749744805e+03
7.641717723907696875e+13 1.412977978525003209e+03
7.712496772935628125e+13 1.404635128452903245e+03
7.783931391033551562e+13 1.395989560773391304e+03
7.856027650207385938e+13 1.386992513097864503e+03
7.928791678703123438e+13 1.378040169437440227e+03
8.002229661527792188e+13 1.369275711156157286e+03
8.076347840975068750e+13 1.360430074788377397e+03
8.151152517156015625e+13 1.351872395778102600e+03
8.226650048534475000e+13 1.343320903390617786e+03
8.302846852467596875e+13 1.334535413059182702e+03
8.379749405751364062e+13 1.325251460346647718e+03
8.457364245171020312e+13 1.315881517890976284e+03
8.535697968056831250e+13 1.307047487483982195e+03
8.614757232844732812e+13 1.299363629662416315e+03
8.694548759642379688e+13 1.291608602482191145e+03
8.775079330800392188e+13 1.283413411715533130e+03
8.856355791488748438e+13 1.274920043150755646e+03
8.938385050278768750e+13 1.266348007384205857e+03
9.021174079730229688e+13 1.258138386572246191e+03
9.104729916984082812e+13 1.249980407048353527e+03
9.189059664360682812e+13 1.242313222265706372e+03
9.274170489963354688e+13 1.234575022553271083e+03
9.360069628287843750e+13 1.226765150157201560e+03
9.446764380837117188e+13 1.219027597695809163e+03
9.534262116742056250e+13 1.211418491255375557e+03
9.622570273387901562e+13 1.203872918898118769e+03
9.711696357046295312e+13 1.196354135867572950e+03
9.801647943513481250e+13 1.189013263255078300e+03
9.892432678754112500e+13 1.181691830489267431e+03
9.984058279551229688e+13 1.174302585214882811e+03
1.007653253416225625e+14 1.166860509434999585e+03
1.016986330298085156e+14 1.159665169125881221e+03
1.026405851920523594e+14 1.152446838202492927e+03
1.035912618951235625e+14 1.145340490177180754e+03
1.045507439473853438e+14 1.138046155485775898e+03
1.055191129056640156e+14 1.130448429294398693e+03
1.064964510821799844e+14 1.122780331511971099e+03
1.074828415515459844e+14 1.115041210343373905e+03
1.084783681578270625e+14 1.107878041287360929e+03
1.094831155216679688e+14 1.101042643760095643e+03
1.104971690474867500e+14 1.094303579895646408e+03
1.115206149307325312e+14 1.087553544824967275e+03
1.125535401652140469e+14 1.081015607450564175e+03
1.135960325504926719e+14 1.074452173494220233e+03
1.146481806993460781e+14 1.067827947759043127e+03
1.157100740453010469e+14 1.061184060573617899e+03
1.167818028502338906e+14 1.054746431345033898e+03
1.178634582120446094e+14 1.048300224651689632e+03
1.189551320723985625e+14 1.041946425394605967e+03
1.200569172245424375e+14 1.035628985310281678e+03
1.211689073211924062e+14 1.029420133149572166e+03
1.222911968824930000e+14 1.023153773414341345e+03
1.234238813040533906e+14 1.016829373458447776e+03
1.245670568650543125e+14 1.010587549805444269e+03
1.257208207364327188e+14 1.004384515371824250e+03
1.268852709891420312e+14 9.982362273194703448e+02
1.280605066024868438e+14 9.920747341046563861e+02
1.292466274725370000e+14 9.865581032119827114e+02
1.304437344206195312e+14 9.811120950807679719e+02
1.316519292018868594e+14 9.756156449821261276e+02
1.328713145139681094e+14 9.700134482454141107e+02
1.341019940056966562e+14 9.640138460925286381e+02
1.353440722859211719e+14 9.581912776126821427e+02
1.365976549323982344e+14 9.528865610580822931e+02
1.378628485007647812e+14 9.475327112056227179e+02
1.391397605335973750e+14 9.421292729733125952e+02
1.404284995695517344e+14 9.364338863168786702e+02
1.417291751525892500e+14 9.305338047924240072e+02
1.430418978412893750e+14 9.246933659475350851e+02
1.443667792182449688e+14 9.188296988612019049e+02
1.457039318995494062e+14 9.136650259536988870e+02
1.470534695443669062e+14 9.084777788569157337e+02
1.484155068645946562e+14 9.032424864868261238e+02
1.497901596346141250e+14 8.982182588406486730e+02
1.511775447011300938e+14 8.936380399520152196e+02
1.525777799931050000e+14 8.884546127526472219e+02
1.539909845317810000e+14 8.827563757781249478e+02
1.554172784407976562e+14 8.779893256549239595e+02
1.568567829564035625e+14 8.735016442777745169e+02
1.583096204377594688e+14 8.689723971386217727e+02
1.597759143773411250e+14 8.644286869497543648e+02
1.612557894114343438e+14 8.599633540809944634e+02
1.627493713307299688e+14 8.552925427694855216e+02
1.642567870910172812e+14 8.503443825699908984e+02
1.657781648239728750e+14 8.453503915656951904e+02
1.673136338480549062e+14 8.403101452629289270e+02
1.688633246794926875e+14 8.358563981686577335e+02
1.704273690433817500e+14 8.314547395214106018e+02
1.720058998848817188e+14 8.270941237091149105e+02
1.735990513805142500e+14 8.227466848012469427e+02
1.752069589495710312e+14 8.184432211708925706e+02
1.768297592656218750e+14 8.140998980384881634e+02
1.784675902681335000e+14 8.097163462177137490e+02
1.801205911741952500e+14 8.054189034435294161e+02
1.817889024903503438e+14 8.011189659817084703e+02
1.834726660245418750e+14 7.968873182234235628e+02
1.851720248981641562e+14 7.926164761354114034e+02
1.868871235582290312e+14 7.883060766923056235e+02
1.886181077896454375e+14 7.848683191299514874e+02
1.903651247276084375e+14 7.816090460472048562e+02
1.921283228701088438e+14 7.774346806372560650e+02
1.939078520905530625e+14 7.732216514576306281e+02
1.957038636505037188e+14 7.689696003971104119e+02
1.975165102125379688e+14 7.654775983619280169e+02
1.993459458532213750e+14 7.623230073769490218e+02
2.011923260762077188e+14 7.587127278166518636e+02
2.030558078254540625e+14 7.550690091575505676e+02
2.049365494985624062e+14 7.513915416803264407e+02
2.068347109602447812e+14 7.474092756018660566e+02
2.087504535559090938e+14 7.432542164324412397e+02
2.106839401253769062e+14 7.396870849955183758e+02
2.126353350167220000e+14 7.360869141059508820e+02
2.146048041002414688e+14 7.324533977460189362e+02
2.165925147825560312e+14 7.292175603377584139e+02
2.185986360208366875e+14 7.261367191967821100e+02
2.206233383371699688e+14 7.231019670114740165e+02
2.226667938330490625e+14 7.200391063718271880e+02
2.247291762040040000e+14 7.169478769319700859e+02
2.268106607543675625e+14 7.138929835587695152e+02
2.289114244121726875e+14 7.108402080173890454e+02
2.310316457441955000e+14 7.078216940318618526e+02
2.331715049711303438e+14 7.047752219933036031e+02
2.353311839829099688e+14 7.017005329488881671e+02
2.375108663541679062e+14 6.986742973184627772e+02
2.397107373598390625e+14 6.956511470235504930e+02
2.419309839909120625e+14 6.926455973177521628e+02
2.441717949703204375e+14 6.896122096365577363e+02
2.464333607689854688e+14 6.866947721482679299e+02
2.487158736220080312e+14 6.842005603684007156e+02
2.510195275450051250e+14 6.816832467226669223e+02
2.533445183506056562e+14 6.790929743344595408e+02
2.556910436650907188e+14 6.760866992356347964e+02
2.580593029451940000e+14 6.733685284653276995e+02
2.604494974950569688e+14 6.708751634611812733e+02
2.628618304833364375e+14 6.683587044341666115e+02
2.652965069604782188e+14 6.656095900616601284e+02
2.677537338761429688e+14 6.626030302076297858e+02
2.702337200967985938e+14 6.605652433983739229e+02
2.727366764234757500e+14 6.585665327251947474e+02
2.752628156096822500e+14 6.565493096120333121e+02
2.778123523794917500e+14 6.541138657694651783e+02
2.803855034457917812e+14 6.516155977584982111e+02
2.829824875287058750e+14 6.490941903120774441e+02
2.856035253741868125e+14 6.470474297934155175e+02
2.882488397727762500e+14 6.450508642336388903e+02
2.909186555785468125e+14 6.430586808539684398e+02
2.936131997282106875e+14 6.410480454913541735e+02
2.963327012604111250e+14 6.392678530124984491e+02
2.990773913351930000e+14 6.377684325800732950e+02
3.018475032536471875e+14 6.362551242292335019e+02
3.046432724777461875e+14 6.344816590852093441e+02
3.074649366503544375e+14 6.324748600884968255e+02
3.103127356154301875e+14 6.304494737362045953e+02
3.131869114384137500e+14 6.290720170712838808e+02
3.160877084267995000e+14 6.279578987318086547e+02
3.190153731509069375e+14 6.264472829711487520e+02
3.219701544648351875e+14 6.249226755988054265e+02
3.249523035276172500e+14 6.233956446546626466e+02
3.279620738245713750e+14 6.218751466230770575e+02
3.309997211888423750e+14 6.203405654483278795e+02
3.340655038231531250e+14 6.190887383982247911e+02
3.371596823217477500e+14 6.180677374432974602e+02
3.402825196925436875e+14 6.170372797825278894e+02
3.434342813794900625e+14 6.160076776791310067e+02
3.466152352851258750e+14 6.149772329244766524e+02
3.498256517933574375e+14 6.139458597580164678e+02
3.530658037924361875e+14 6.129049338163094944e+02
3.563359666981568125e+14 6.118665615217263394e+02
3.596364184772696875e+14 6.108247198702899823e+02
3.629674396711034375e+14 6.097732284825000306e+02
3.663293134194171250e+14 6.092344526698560685e+02
3.697223254844621250e+14 6.087074521685565287e+02
3.731467642752740625e+14 6.081778885163381574e+02
3.766029208721908125e+14 6.076487336069068306e+02
3.800910890515885000e+14 6.071146775636426582e+02
3.836115653108595625e+14 6.065806220163062790e+02
3.871646488936093125e+14 6.060440336586563035e+02
3.907506418150946875e+14 6.055030056746561513e+02
3.943698488878978125e+14 6.049635665781544276e+02
3.980225777478301875e+14 6.044191310937151229e+02
4.017091388800878125e+14 6.041503912040301429e+02
4.054298456456380000e+14 6.041503912040301429e+02
4.091850143078566250e+14 6.041503912040301429e+02
4.129749640594141250e+14 6.046902935533167920e+02
4.168000170494009375e+14 6.052483622605210485e+02
4.206604984107175625e+14 6.055431016906117065e+02
4.245567362877046250e+14 6.055431016906117065e+02
4.284890618640383750e+14 6.055472257871907686e+02
4.324578093908843125e+14 6.061166740119409724e+02
4.364633162153023750e+14 6.066913965749058661e+02
4.405059228089289375e+14 6.072691934283636783e+02
4.445859727969112500e+14 6.078506511790835702e+02
4.487038129871180625e+14 6.085357408556690189e+02
4.528597933996215625e+14 6.097138201020342194e+02
4.570542672964431875e+14 6.109028109433768350e+02
4.612875912115883750e+14 6.116222254588975602e+02
4.655601249813455625e+14 6.122249446776111199e+02
4.698722317748759375e+14 6.133868082376037592e+02
4.742242781250855000e+14 6.152219749501210799e+02
4.786166339597741875e+14 6.169827044140489534e+02
4.830496726330879375e+14 6.182262851672751367e+02
4.875237709572468125e+14 6.194813842029453781e+02
4.920393092345778125e+14 6.211111394387717155e+02
4.965966712898438125e+14 6.228114863605028404e+02
5.011962445028618750e+14 6.245275822201670053e+02
5.058384198414387500e+14 6.266989517803845047e+02
5.105235918945969375e+14 6.293217273388025887e+02
5.152521589061175625e+14 6.317693589811153743e+02
5.200245228083950625e+14 6.337754842905034138e+02
5.248410892565940000e+14 6.359728440008160533e+02
5.297022676631390625e+14 6.393890352347557382e+02
5.346084712325076875e+14 6.428368678843523867e+02
5.395601169963560625e+14 6.461074018518662569e+02
5.445576258489705625e+14 6.494041736465646864e+02
5.496014225830361875e+14 6.527314807712655238e+02
5.546919359257537500e+14 6.563056067526550805e+02
5.598295985752737500e+14 6.599619326235659855e+02
5.650148472374792500e+14 6.638575087173977636e+02
5.702481226631108750e+14 6.678612586930076986e+02
5.755298696852212500e+14 6.719020921655550183e+02
5.808605372569967500e+14 6.763561524207449338e+02
5.862405784899106250e+14 6.810288165162781979e+02
5.916704506922407500e+14 6.857818330265752138e+02
5.971506154079452500e+14 6.905969780773640423e+02
6.026815384558858750e+14 6.954567219212426608e+02
6.082636899694325000e+14 7.009955827191975004e+02
6.138975444364161250e+14 7.068420326165949064e+02
6.195835807394650000e+14 7.125852622386947814e+02
6.253222821967132500e+14 7.183350079822541829e+02
6.311141366028748750e+14 7.241380089690160275e+02
6.369596362707168750e+14 7.303355995166391494e+02
6.428592780728971250e+14 7.366201027005082551e+02
6.488135634842030000e+14 7.427685729853041039e+02
6.548229986241811250e+14 7.489739915761572320e+02
6.608880943001486250e+14 7.554740113860123074e+02
6.670093660506230000e+14 7.627146505183640102e+02
6.731873341891340000e+14 7.700223538332279531e+02
6.794225238484545000e+14 7.780102049652779215e+02
6.857154650252411250e+14 7.864763234157546776e+02
6.920666926250762500e+14 7.950795130961622590e+02
6.984767465079446250e+14 8.048870898922879178e+02
7.049461715341135000e+14 8.147855063378194700e+02
7.114755176104495000e+14 8.245579682985728596e+02
7.180653397371666250e+14 8.342771379523792348e+02
7.247161980549905000e+14 8.441976959727114718e+02
7.314286578927835000e+14 8.545552089573818648e+02
7.382032898155870000e+14 8.650086552054669937e+02
7.450406696731248750e+14 8.761597758095390418e+02
7.519413786487556250e+14 8.874287916624637091e+02
7.589060033088633750e+14 8.989481192072245221e+02
7.659351356527276250e+14 9.119871970678075286e+02
7.730293731628341250e+14 9.251436430009525793e+02
7.801893188556650000e+14 9.381024997259762586e+02
7.874155813329612500e+14 9.511813838569635209e+02
7.947087748334432500e+14 9.649688560747553083e+02
8.020695192850338750e+14 9.799704780061659903e+02
8.094984403575420000e+14 9.951110478250209326e+02
8.169961695158496250e+14 1.010301657499232192e+03
8.245633440735923750e+14 1.025611440223421596e+03
8.322006072473196250e+14 1.041386440782022873e+03
8.399086082111818750e+14 1.057885809911909973e+03
8.476880021520998750e+14 1.074539019027135737e+03
8.555394503254605000e+14 1.091435735589901469e+03
8.634636201113292500e+14 1.108488952768529089e+03
8.714611850711668750e+14 1.125588732827845433e+03
8.795328250050953750e+14 1.142374202899170314e+03
8.876792260096708750e+14 1.159310458431215920e+03
8.959010805362058750e+14 1.175876697362711866e+03
9.041990874496352500e+14 1.192596375963132232e+03
9.125739520879067500e+14 1.208958845250567265e+03
9.210263863219505000e+14 1.223826956312384709e+03
9.295571086161755000e+14 1.238832778658473444e+03
9.381668440895470000e+14 1.252115559306286286e+03
9.468563245772188750e+14 1.264254785394653936e+03
9.556262886927457500e+14 1.274328680440228936e+03
9.644774818908622500e+14 1.281804753234240707e+03
9.734106565308428750e+14 1.289350070842303467e+03
9.824265719404597500e+14 1.292601724761345167e+03
9.915259944805215000e+14 1.293977140727871756e+03
1.000709697610021125e+15 1.292305964921632494e+03
1.009978461951876500e+15 1.287892087585199533e+03
1.019333075359280250e+15 1.283437328073883236e+03
1.028774332982673250e+15 1.273654943464014877e+03
1.038303037337330000e+15 1.262833925295108656e+03
1.047919998371578625e+15 1.251247916299771759e+03
1.057626033535643625e+15 1.235776998538060298e+03
1.067421967851125125e+15 1.220162786181295360e+03
1.077308633981133500e+15 1.202893333545436917e+03
1.087286872301060625e+15 1.185386038466018817e+03
1.097357530970021250e+15 1.167688639935975516e+03
1.107521466002941500e+15 1.149626227404391329e+03
1.117779541343316625e+15 1.131396517358252595e+03
1.128132628936653750e+15 1.113946539814257449e+03
1.138581608804583750e+15 1.096847534804335510e+03
1.149127369119670250e+15 1.079900461664767363e+03
1.159770806280901000e+15 1.064934259150532853e+03
1.170512824989878000e+15 1.049829436810260404e+03
1.181354338327723500e+15 1.034584710720647536e+03
1.192296267832691000e+15 1.021624119662082649e+03
1.203339543578499500e+15 1.010206796486306189e+03
1.214485104253391500e+15 9.994249760058251013e+02
1.225733897239911500e+15 9.899741028356401102e+02
1.237086878695447000e+15 9.804356938731579021e+02
