Time [s]                 Flux [W m-2]
3.153600000000000000e+13 2.459953789557670802e+02
3.182809245496755859e+13 2.431991114985596028e+02
3.212289032603883594e+13 2.404346296453172158e+02
3.242041867129461719e+13 2.377015720841675659e+02
3.272070278090815234e+13 2.349995816103321431e+02
3.302376817929536719e+13 2.323283050794342728e+02
3.332964062728401172e+13 2.296873933613380814e+02
3.363834612430353906e+13 2.270765012945297769e+02
3.394991091059527344e+13 2.244952876409977023e+02
3.426436146944241406e+13 2.219434150416372802e+02
3.458172452942165625e+13 2.194205499721514911e+02
3.490202706667465625e+13 2.169263626994709853e+02
3.522529630720125781e+13 2.144605272386512809e+02
3.555155972917392188e+13 2.120227213102708106e+02
3.588084506527292188e+13 2.096126262983027857e+02
3.621318030504416406e+13 2.072299272084831898e+02
3.654859369727790625e+13 2.048743126271346853e+02
3.688711375241004688e+13 2.025454746804689989e+02
3.722876924494585938e+13 2.002431089943417248e+02
3.757358921590521875e+13 1.979669146544829630e+02
3.792160297529182812e+13 1.957165941671552787e+02
3.827284010458400781e+13 1.934918534202833484e+02
3.862733045924935156e+13 1.912924016450075726e+02
3.898510417128275000e+13 1.891179513776829424e+02
3.934619165176707031e+13 1.869682184223095476e+02
3.971062359345874219e+13 1.848429218133827021e+02
4.007843097339614844e+13 1.827417837791806505e+02
4.044964505553289844e+13 1.806645297054556067e+02
4.082429739339555469e+13 1.786108880995379025e+02
4.120241983276517188e+13 1.765805905548614021e+02
4.158404451438478906e+13 1.745733717158773288e+02
4.196920387669094531e+13 1.725889692433745211e+02
4.235793065857114062e+13 1.706271237801934717e+02
4.275025790214697656e+13 1.686875789173232647e+02
4.314621895558214844e+13 1.667700811603981208e+02
4.354584747591775781e+13 1.648743798965618623e+02
4.394917743193258594e+13 1.630002273617090509e+02
4.435624310703073438e+13 1.611473786081114667e+02
4.476707910215600000e+13 1.593155914723979265e+02
4.518172033873238281e+13 1.575046265439070794e+02
4.560020206163313281e+13 1.557142471333916660e+02
4.602255984217597656e+13 1.539442192420914921e+02
4.644882958114697656e+13 1.521943115311451038e+02
4.687904751185242969e+13 1.504642952913569047e+02
4.731325020319802344e+13 1.487539444133002178e+02
4.775147456279804688e+13 1.470630353577730034e+02
4.819375784011185938e+13 1.453913471265764485e+02
4.864013762961043750e+13 1.437386612336336498e+02
4.909065187397221094e+13 1.421047616764291774e+02
4.954533886730754688e+13 1.404894349077849824e+02
5.000423725841457812e+13 1.388924698079456732e+02
5.046738605406369531e+13 1.373136576569878002e+02
5.093482462231343750e+13 1.357527921075361235e+02
5.140659269585711719e+13 1.342096691578013292e+02
5.188273037539944531e+13 1.326840871249138161e+02
5.236327813306593750e+13 1.311758466185610814e+02
5.284827681584232031e+13 1.296847505149343931e+02
5.333776764904695312e+13 1.282106039309605876e+02
5.383179223983523438e+13 1.267532141988336747e+02
5.433039258073558594e+13 1.253123908408291385e+02
5.483361105321967188e+13 1.238879455444153450e+02
5.534149043130412500e+13 1.224796921376371870e+02
5.585407388518666406e+13 1.210874465647859921e+02
5.637140498491596875e+13 1.197110268623397076e+02
5.689352770409439844e+13 1.183502531351867191e+02
5.742048642361664844e+13 1.170049475331109221e+02
5.795232593544140625e+13 1.156749342275441705e+02
5.848909144639902344e+13 1.143600393885916873e+02
5.903082858203450781e+13 1.130600911623090212e+02
5.957758339048489844e+13 1.117749196482429141e+02
6.012940234639437500e+13 1.105043568772220794e+02
6.068633235486375781e+13 1.092482367894094608e+02
6.124842075543788281e+13 1.080063952125949100e+02
6.181571532612983594e+13 1.067786698407400223e+02
6.238826428748133594e+13 1.055649002127615717e+02
6.296611630666244531e+13 1.043649276915648159e+02
6.354932050160745312e+13 1.031785954433065768e+02
6.413792644519036719e+13 1.020057484168989674e+02
6.473198416943897656e+13 1.008462333237412452e+02
6.533154416978678125e+13 9.969989861769037987e+01
6.593665740936613281e+13 9.856659447525093753e+01
6.654737532333925781e+13 9.744617277599506622e+01
6.716374982327067969e+13 9.633848708320029175e+01
6.778583330154015625e+13 9.524339262471538348e+01
6.841367863579510156e+13 9.416074627403648378e+01
6.904733919344639844e+13 9.309040653159846102e+01
6.968686883620360156e+13 9.203223350628594801e+01
7.033232192465377344e+13 9.098608889714668635e+01
7.098375332288248438e+13 8.995183597531669761e+01
7.164121840313654688e+13 8.892933956615085833e+01
7.230477305053110938e+13 8.791846603155289586e+01
7.297447366780031250e+13 8.691908325251364431e+01
7.365037718009067188e+13 8.593106061184101918e+01
7.433254103980081250e+13 8.495426897708669856e+01
7.502102323146406250e+13 8.398858068367289320e+01
7.571588227667751562e+13 8.303386951820409934e+01
7.641717723907696875e+13 8.209001070197196270e+01
7.712496772935628125e+13 8.115688087464764067e+01
7.783931391033551562e+13 8.023435807815621956e+01
7.856027650207385938e+13 7.932232174074103170e+01
7.928791678703123438e+13 7.842065266120316380e+01
8.002229661527792188e+13 7.752923299332022111e+01
8.076347840975068750e+13 7.664794623044790001e+01
8.151152517156015625e+13 7.577667719029095394e+01
8.226650048534475000e+13 7.491531199984714817e+01
8.302846852467596875e+13 7.406373808052819641e+01
8.379749405751364062e+13 7.322184413344328391e+01
8.457364245171020312e+13 7.238952012485394505e+01
8.535697968056831250e+13 7.156665727179037617e+01
8.614757232844732812e+13 7.075314802783742607e+01
8.694548759642379688e+13 6.994888606907599637e+01
8.775079330800392188e+13 6.915376628018800886e+01
8.856355791488748438e+13 6.836768474071570267e+01
8.938385050278768750e+13 6.759053871148294945e+01
9.021174079730229688e+13 6.682222662116507195e+01
9.104729916984082812e+13 6.606264805301492515e+01
9.189059664360682812e+13 6.531170373173638666e+01
9.274170489963354688e+13 6.456929551051257477e+01
9.360069628287843750e+13 6.383532635817608281e+01
9.446764380837117188e+13 6.310970034652829241e+01
9.534262116742056250e+13 6.239232263779968690e+01
9.622570273387901562e+13 6.168309947225787226e+01
9.711696357046295312e+13 6.098193815595178080e+01
9.801647943513481250e+13 6.028874704859529032e+01
9.892432678754112500e+13 5.960343555159310114e+01
9.984058279551229688e+13 5.892591409619758025e+01
1.007653253416225625e+14 5.825609413180293217e+01
1.016986330298085156e+14 5.759388811437220568e+01
1.026405851920523594e+14 5.693920949499365491e+01
1.035912618951235625e+14 5.629197270857174829e+01
1.045507439473853438e+14 5.565209316264262185e+01
1.055191129056640156e+14 5.501948722631665589e+01
1.064964510821799844e+14 5.439407221935078951e+01
1.074828415515459844e+14 5.377576640134063979e+01
1.084783681578270625e+14 5.316448896103759125e+01
1.094831155216679688e+14 5.256016000578741654e+01
1.104971690474867500e+14 5.196270055108673347e+01
1.115206149307325312e+14 5.137203251026249262e+01
1.125535401652140469e+14 5.078807868426489591e+01
1.135960325504926719e+14 5.021076275157642499e+01
1.146481806993460781e+14 4.964000925823927446e+01
1.157100740453010469e+14 4.907574360799203816e+01
1.167818028502338906e+14 4.851789205252089943e+01
1.178634582120446094e+14 4.796638168181932826e+01
1.189551320723985625e+14 4.742114041466128782e+01
1.200569172245424375e+14 4.688209698917916768e+01
1.211689073211924062e+14 4.634918095354884571e+01
1.222911968824930000e+14 4.582232265678411665e+01
1.234238813040533906e+14 4.530145323963191828e+01
1.245670568650543125e+14 4.478650462557329348e+01
1.257208207364327188e+14 4.427740951192451035e+01
1.268852709891420312e+14 4.377410136104292349e+01
1.280605066024868438e+14 4.327651439162917768e+01
1.292466274725370000e+14 4.278458357013046509e+01
1.304437344206195312e+14 4.229824460223936455e+01
1.316519292018868594e+14 4.181743392449280350e+01
1.328713145139681094e+14 4.134208869596308489e+01
1.341019940056966562e+14 4.087214679004537032e+01
1.353440722859211719e+14 4.040754678633651764e+01
1.365976549323982344e+14 3.994822796260960018e+01
1.378628485007647812e+14 3.949413028687660443e+01
1.391397605335973750e+14 3.904519440954143761e+01
1.404284995695517344e+14 3.860136165564498612e+01
1.417291751525892500e+14 3.816257401719513354e+01
1.430418978412893750e+14 3.772877414558558229e+01
1.443667792182449688e+14 3.729990534410079306e+01
1.457039318995494062e+14 3.687591156050462615e+01
1.470534695443669062e+14 3.645673737971629436e+01
1.484155068645946562e+14 3.604232801656676344e+01
1.497901596346141250e+14 3.563262930863759692e+01
1.511775447011300938e+14 3.522758770918382965e+01
1.525777799931050000e+14 3.482715028013429759e+01
1.539909845317810000e+14 3.443126468517308325e+01
1.554172784407976562e+14 3.403987918289951864e+01
1.568567829564035625e+14 3.365294262006461423e+01
1.583096204377594688e+14 3.327040442488706162e+01
1.597759143773411250e+14 3.289221460044281997e+01
1.612557894114343438e+14 3.251832371812977840e+01
1.627493713307299688e+14 3.214868291120919963e+01
1.642567870910172812e+14 3.178324386841782356e+01
1.657781648239728750e+14 3.142195882765426163e+01
1.673136338480549062e+14 3.106478056973551816e+01
1.688633246794926875e+14 3.071166241222710980e+01
1.704273690433817500e+14 3.036255820334100264e+01
1.720058998848817188e+14 3.001742231590290189e+01
1.735990513805142500e+14 2.967620964139041106e+01
1.752069589495710312e+14 2.933887558403639773e+01
1.768297592656218750e+14 2.900537605500072758e+01
1.784675902681335000e+14 2.867566746660813948e+01
1.801205911741952500e+14 2.834970672665050984e+01
1.817889024903503438e+14 2.802745123275643024e+01
1.834726660245418750e+14 2.770885886682130206e+01
1.851720248981641562e+14 2.739388798950421844e+01
1.868871235582290312e+14 2.708249743478484817e+01
1.886181077896454375e+14 2.677464650458339079e+01
1.903651247276084375e+14 2.647029496344159583e+01
1.921283228701088438e+14 2.616940303326325079e+01
1.939078520905530625e+14 2.587193138811653981e+01
1.957038636505037188e+14 2.557784114909358664e+01
1.975165102125379688e+14 2.528709387922843987e+01
1.993459458532213750e+14 2.499965157847469044e+01
2.011923260762077188e+14 2.471547667873812060e+01
2.030558078254540625e+14 2.443453203896684656e+01
2.049365494985624062e+14 2.415678094029725287e+01
2.068347109602447812e+14 2.388218708125411638e+01
2.087504535559090938e+14 2.361071457300728937e+01
2.106839401253769062e+14 2.334232793468047973e+01
2.126353350167220000e+14 2.307699208871343544e+01
2.146048041002414688e+14 2.281467235627851409e+01
2.165925147825560312e+14 2.255533445274747351e+01
2.185986360208366875e+14 2.229894448321091716e+01
2.206233383371699688e+14 2.204546893804756635e+01
2.226667938330490625e+14 2.179487468854572896e+01
2.247291762040040000e+14 2.154712898257271547e+01
2.268106607543675625e+14 2.130219944029456158e+01
2.289114244121726875e+14 2.106005404994334640e+01
2.310316457441955000e+14 2.082066116363439079e+01
2.331715049711303438e+14 2.058398949322921823e+01
2.353311839829099688e+14 2.035000810624664069e+01
2.375108663541679062e+14 2.011868642181923406e+01
2.397107373598390625e+14 1.988999420669754059e+01
2.419309839909120625e+14 1.966390157129793792e+01
2.441717949703204375e+14 1.944037896579647651e+01
2.464333607689854688e+14 1.921939717626614552e+01
2.487158736220080312e+14 1.900092732085962766e+01
2.510195275450051250e+14 1.878494084603401859e+01
2.533445183506056562e+14 1.857140952281848101e+01
2.556910436650907188e+14 1.836030544312571777e+01
2.580593029451940000e+14 1.815160101610395316e+01
2.604494974950569688e+14 1.794526896453044884e+01
2.628618304833364375e+14 1.774128232124730431e+01
2.652965069604782188e+14 1.753961442563633000e+01
2.677537338761429688e+14 1.734023892013469137e+01
2.702337200967985938e+14 1.714312974679017998e+01
2.727366764234757500e+14 1.694826114385494265e+01
2.752628156096822500e+14 1.675560764241930300e+01
2.778123523794917500e+14 1.656514406308261655e+01
2.803855034457917812e+14 1.637684551266195498e+01
2.829824875287058750e+14 1.619068738093946891e+01
2.856035253741868125e+14 1.600664533744530615e+01
2.882488397727762500e+14 1.582469532827795433e+01
2.909186555785468125e+14 1.564481357295992758e+01
2.936131997282106875e+14 1.546697656133048504e+01
2.963327012604111250e+14 1.529116105047238960e+01
2.990773913351930000e+14 1.511734406167435019e+01
3.018475032536471875e+14 1.494550287742726802e+01
3.046432724777461875e+14 1.477561503845585023e+01
3.074649366503544375e+14 1.460765834078272718e+01
3.103127356154301875e+14 1.444161083282668656e+01
3.131869114384137500e+14 1.427745081253317672e+01
3.160877084267995000e+14 1.411515682453860698e+01
3.190153731509069375e+14 1.395470765736569874e+01
3.219701544648351875e+14 1.379608234065141836e+01
3.249523035276172500e+14 1.363926014240575668e+01
3.279620738245713750e+14 1.348422056630276877e+01
3.309997211888423750e+14 1.333094334900141043e+01
3.340655038231531250e+14 1.317940845749683376e+01
3.371596823217477500e+14 1.302959608650278334e+01
3.402825196925436875e+14 1.288148665586263775e+01
3.434342813794900625e+14 1.273506080799043971e+01
3.466152352851258750e+14 1.259029940534100334e+01
3.498256517933574375e+14 1.244718352790826543e+01
3.530658037924361875e+14 1.230569447075310130e+01
3.563359666981568125e+14 1.216581374155831696e+01
3.596364184772696875e+14 1.202752305821143963e+01
3.629674396711034375e+14 1.189080434641589612e+01
3.663293134194171250e+14 1.175563973732832856e+01
3.697223254844621250e+14 1.162201156522328738e+01
3.731467642752740625e+14 1.148990236518443986e+01
3.766029208721908125e+14 1.135929487082157507e+01
3.800910890515885000e+14 1.123017201201457560e+01
3.836115653108595625e+14 1.110251691268165430e+01
3.871646488936093125e+14 1.097631288857431642e+01
3.907506418150946875e+14 1.085154344509641078e+01
3.943698488878978125e+14 1.072819227514849594e+01
3.980225777478301875e+14 1.060624325699618353e+01
4.017091388800878125e+14 1.048568045216358691e+01
4.054298456456380000e+14 1.036648810334985704e+01
4.091850143078566250e+14 1.024865063236989471e+01
4.129749640594141250e+14 1.013215263811798827e+01
4.168000170494009375e+14 1.001697889455542168e+01
4.206604984107175625e+14 9.903114348720125193e+00
4.245567362877046250e+14 9.790544118759465064e+00
4.284890618640383750e+14 9.679253491984871616e+00
4.324578093908843125e+14 9.569227922949423260e+00
4.364633162153023750e+14 9.460453031546537161e+00
4.405059228089289375e+14 9.352914601130288830e+00
4.445859727969112500e+14 9.246598576657795832e+00
4.487038129871180625e+14 9.141491062851944349e+00
4.528597933996215625e+14 9.037578322385376950e+00
4.570542672964431875e+14 8.934846774085130505e+00
4.612875912115883750e+14 8.833282991157314967e+00
4.655601249813455625e+14 8.732873699432696313e+00
4.698722317748759375e+14 8.633605775631574275e+00
4.742242781250855000e+14 8.535466245648379413e+00
4.786166339597741875e+14 8.438442282856415844e+00
4.830496726330879375e+14 8.342521206431163350e+00
4.875237709572468125e+14 8.247690479692995069e+00
4.920393092345778125e+14 8.153937708468719237e+00
4.965966712898438125e+14 8.061250639471428059e+00
5.011962445028618750e+14 7.969617158699417558e+00
5.058384198414387500e+14 7.879025289852707559e+00
5.105235918945969375e+14 7.789463192767577482e+00
5.152521589061175625e+14 7.700919161869468788e+00
5.200245228083950625e+14 7.613381624642832968e+00
5.248410892565940000e+14 7.526839140118751104e+00
5.297022676631390625e+14 7.441280397379385292e+00
5.346084712325076875e+14 7.356694214080025773e+00
5.395601169963560625e+14 7.273069534987405049e+00
5.445576258489705625e+14 7.190395430534615606e+00
5.496014225830361875e+14 7.108661095393009610e+00
5.546919359257537500e+14 7.027855847059712779e+00
5.598295985752737500e+14 6.947969124461513601e+00
5.650148472374792500e+14 6.868990486574604759e+00
5.702481226631108750e+14 6.790909611059744222e+00
5.755298696852212500e+14 6.713716292913533223e+00
5.808605372569967500e+14 6.637400443134203520e+00
5.862405784899106250e+14 6.561952087403391864e+00
5.916704506922407500e+14 6.487361364782296747e+00
5.971506154079452500e+14 6.413618526422932398e+00
6.026815384558858750e+14 6.340713934294023524e+00
6.082636899694325000e+14 6.268638059921129546e+00
6.138975444364161250e+14 6.197381483141605862e+00
6.195835807394650000e+14 6.126934890873249273e+00
6.253222821967132500e+14 6.057289075896949981e+00
6.311141366028748750e+14 5.988434935653631719e+00
6.369596362707168750e+14 5.920363471054357341e+00
6.428592780728971250e+14 5.853065785304228719e+00
6.488135634842030000e+14 5.786533082739632405e+00
6.548229986241811250e+14 5.720756667678483787e+00
6.608880943001486250e+14 5.655727943283995529e+00
6.670093660506230000e+14 5.591438410440956908e+00
6.731873341891340000e+14 5.527879666644768264e+00
6.794225238484545000e+14 5.465043404903537905e+00
6.857154650252411250e+14 5.402921412652188060e+00
6.920666926250762500e+14 5.341505570679178305e+00
6.984767465079446250e+14 5.280787852065170540e+00
7.049461715341135000e+14 5.220760321134187087e+00
7.114755176104495000e+14 5.161415132416260931e+00
7.180653397371666250e+14 5.102744529622139424e+00
7.247161980549905000e+14 5.044740844629375331e+00
7.314286578927835000e+14 4.987396496480385188e+00
7.382032898155870000e+14 4.930703990391454461e+00
7.450406696731248750e+14 4.874655916773273923e+00
7.519413786487556250e+14 4.819244950262363325e+00
7.589060033088633750e+14 4.764463848763893949e+00
7.659351356527276250e+14 4.710305452505013868e+00
7.730293731628341250e+14 4.656762683099148425e+00
7.801893188556650000e+14 4.603828542620721720e+00
7.874155813329612500e+14 4.551496112690776030e+00
7.947087748334432500e+14 4.499758553572631214e+00
8.020695192850338750e+14 4.448609103277840759e+00
8.094984403575420000e+14 4.398041076682636330e+00
8.169961695158496250e+14 4.348047864654044581e+00
8.245633440735923750e+14 4.298622933186164730e+00
8.322006072473196250e+14 4.249759822546043786e+00
8.399086082111818750e+14 4.201452146429614842e+00
8.476880021520998750e+14 4.153693591126882190e+00
8.555394503254605000e+14 4.106477914696800013e+00
8.634636201113292500e+14 4.059798946151327748e+00
8.714611850711668750e+14 4.013650584649099962e+00
8.795328250050953750e+14 3.968026798697958046e+00
8.876792260096708750e+14 3.922921625366546650e+00
8.959010805362058750e+14 3.878329169505168927e+00
9.041990874496352500e+14 3.834243602975174081e+00
9.125739520879067500e+14 3.790659163887293293e+00
9.210263863219505000e+14 3.747570155848450213e+00
9.295571086161755000e+14 3.704970947217440358e+00
9.381668440895470000e+14 3.662855970368765313e+00
9.468563245772188750e+14 3.621219720965012545e+00
9.556262886927457500e+14 3.580056757237335407e+00
9.644774818908622500e+14 3.539361699274403694e+00
9.734106565308428750e+14 3.499129228319137752e+00
9.824265719404597500e+14 3.459354086073592960e+00
9.915259944805215000e+14 3.420031074011737449e+00
1.000709697610021125e+15 3.381155052699901908e+00
1.009978461951876500e+15 3.342720941125239875e+00
1.019333075359280250e+15 3.304723716031558123e+00
1.028774332982673250e+15 3.267158411262713891e+00
1.038303037337330000e+15 3.230020117113707290e+00
1.047919998371578625e+15 3.193303979688913774e+00
1.057626033535643625e+15 3.157005200267610778e+00
1.067421967851125125e+15 3.121119034676953952e+00
1.077308633981133500e+15 3.085640792671817234e+00
1.087286872301060625e+15 3.050565837321816520e+00
1.097357530970021250e+15 3.015889584405295309e+00
1.107521466002941500e+15 2.981607501810077387e+00
1.117779541343316625e+15 2.947715108941281414e+00
1.128132628936653750e+15 2.914207976135614331e+00
1.138581608804583750e+15 2.881081724082473539e+00
1.149127369119670250e+15 2.848332023251485268e+00
1.159770806280901000e+15 2.815954593326786437e+00
1.170512824989878000e+15 2.783945202647525541e+00
1.181354338327723500e+15 2.752299667654724225e+00
1.192296267832691000e+15 2.721013852344634110e+00
1.203339543578499500e+15 2.690083667728098149e+00
1.214485104253391500e+15 2.659505071296065282e+00
1.225733897239911500e+15 2.629274066491374739e+00
1.237086878695447000e+15 2.599386702186326836e+00
